 phi	energy	
  -343.77466751209226      -0.14105685531844281     
  -339.19100964991867      -0.10184104628718402     
  -334.60735178774507       -5.1617787313500835E-002
  -330.02369392557142        8.1871469344685921E-003
  -325.44000874264191        7.5932484209823292E-002
  -320.85635088046826       0.14980245651513746     
  -316.27269301829466       0.22785614267943055     
  -311.68903515612107       0.30807582697717112     
  -307.10537729394741       0.38841907657304842     
  -302.52171943177382       0.46687087269458039     
  -297.93803424884430       0.54149527566998545     
  -293.35437638667065       0.61048269958045220     
  -288.77071852449706       0.67219817664906356     
  -284.18706066232340       0.72522050805978844     
  -279.60340280014981       0.76837803341184330     
  -275.01974493797621       0.80077739184251584     
  -270.43608707580256       0.82182500565597016     
  -265.85240189287305       0.83124076758168775     
  -261.26874403069939       0.82906339553732655     
  -256.68508616852580       0.81564799014114919     
  -252.10142830635218       0.79165475597602408     
  -247.51777044417858       0.75803019638617375     
  -242.93408526124904       0.71598052787522881     
  -238.35042739907541       0.66693969179837775     
  -233.76676953690179       0.61252892190064778     
  -229.18311167472820       0.55451392654015186     
  -224.59945381255457       0.49475715253947217     
  -220.01579595038095       0.43516777480683710     
  -215.43212442782936       0.37765031151329298     
  -210.84846656565577       0.32405420203949920     
  -206.26480870348215       0.27612310497887438     
  -201.68113718093056       0.23544854386801772     
  -197.09747931875694       0.20342718747304114     
  -192.51382145658334       0.18122215798366126     
  -187.93014993403176       0.16973160092866732     
  -183.34649207185814       0.16956359641982344     
  -178.76283420968451       0.18101840747713832     
  -174.17916268713296       0.20407917225577249     
  -169.59550482495933       0.23841021276265212     
  -165.01184696278571       0.28336439833998078     
  -160.42818910061209       0.33799796728600184     
  -155.84451757806053       0.40109357757779107     
  -151.26085971588691       0.47118949169952423     
  -146.67720185371329       0.54661708014808208     
  -142.09353033116170       0.62554217942474533     
  -137.50987246898811       0.70601058501354919     
  -132.92621460681448       0.78599898090184239     
  -128.34254308426290       0.86346571493594448     
  -123.75888522208929       0.93640226417106920     
  -119.17522735991567        1.0028861121727282     
  -114.59155583736410        1.0611294690160646     
  -110.00789797519047        1.1095250837431823     
  -105.42424011301686        1.1466891035342692     
  -100.84058225084324        1.1714966498070449     
  -96.256924388669631        1.1831118630373365     
  -91.673239205740089        1.1810104941622828     
  -87.089581343566479        1.1649948834207873     
  -82.505923481392855        1.1352005447784184     
  -77.922265619219246        1.0920944209182157     
  -73.338607757045622        1.0364648653739232     
  -68.754949894872013       0.96940350464191116     
  -64.171264711942470       0.89227897293731129     
  -59.587606849768854       0.80670603905437566     
  -55.003948987595237       0.71450388662732978     
  -50.420291125421620       0.61765376403937122     
  -45.836633263248004       0.51825033437689660     
  -41.252975401074387       0.41845059338338580     
  -36.669317538900771       0.32042121360402387     
  -32.085632355971235       0.22628509879743230     
  -27.501974493797618       0.13807179776264206     
  -22.918316631624002        5.7664709849752624E-002
  -18.334658769450385       -1.3242396423525926E-002
  -13.751000907276769       -7.3186921669565003E-002
  -9.1673430451031521      -0.12097256748967465     
  -4.5836578621736166      -0.15569792020522313     
   0.0000000000000000      -0.17677669143305930     
   4.5836578621736166      -0.18395200494604821     
   9.1673157243472332      -0.17730025423721987     
   13.750973586520850      -0.15722773653798564     
   18.334631448694466      -0.12445876180414056     
   22.918289310868083       -8.0015796745435297E-002
   27.501974493797618       -2.5191805005101625E-002
   32.085632355971235        3.8482430521980526E-002
   36.669290218144852       0.10928019894237037     
   41.252948080318468       0.18532236585662154     
   45.836605942492085       0.26462612527668594     
   50.420263804665701       0.34515590881892566     
   55.003948987595237       0.42487591604401109     
   59.587606849768854       0.50180010061397873     
   64.171264711942470       0.57404542040422624     
   68.754922574116094       0.63987751167091667     
   73.338580436289703       0.69775476251619861     
   77.922238298463327       0.74636679783403514     
   82.505923481392855       0.78466707384355416     
   87.089581343566479       0.81189751842353286     
   91.673239205740089       0.82760784895103057     
   96.256897067913712       0.83166453292244502     
   100.84055493008732       0.82425274604757348     
   105.42421279226095       0.80586979450030316     
   110.00787065443456       0.77731044109280067     
  -343.77466751209226      -0.36018673127063960     
  -339.19100964991867      -0.32988713378710821     
  -334.60735178774507      -0.28712137241322189     
  -330.02369392557142      -0.23326751937291207     
  -325.44000874264191      -0.16992880197608651     
  -320.85635088046826       -9.8892748442016509E-002
  -316.27269301829466       -2.2082183468392691E-002
  -311.68903515612107        5.8493128937433414E-002
  -307.10537729394741       0.14078848113821407     
  -302.52171943177382       0.22277636759035546     
  -297.93803424884430       0.30249826473100838     
  -293.35437638667065       0.37811191940244859     
  -288.77071852449706       0.44794000440189935     
  -284.18706066232340       0.51050942800662602     
  -279.60340280014981       0.56458746112267755     
  -275.01974493797621       0.60921088903819864     
  -270.43608707580256       0.64370794187763458     
  -265.85240189287305       0.66771257219186331     
  -261.26874403069939       0.68117000528557115     
  -256.68508616852580       0.68433541621990224     
  -252.10142830635218       0.67776294913917723     
  -247.51777044417858       0.66228767414090850     
  -242.93408526124904       0.63899982788205856     
  -238.35042739907541       0.60921311677294276     
  -233.76676953690179       0.57442572422117988     
  -229.18311167472820       0.53627783617599700     
  -224.59945381255457       0.49650481801401236     
  -220.01579595038095       0.45688801704643872     
  -215.43212442782936       0.41920425413060181     
  -210.84846656565577       0.38517598273641473     
  -206.26480870348215       0.35642175368876494     
  -201.68113718093056       0.33441047898180298     
  -197.09747931875694       0.32041933508436959     
  -192.51382145658334       0.31549616902243954     
  -187.93014993403176       0.32042862914440728     
  -183.34649207185814       0.33571964666124182     
  -178.76283420968451       0.36157065007380573     
  -174.17916268713296       0.39787272886534647     
  -169.59550482495933       0.44420542709982513     
  -165.01184696278571       0.49984488584029013     
  -160.42818910061209       0.56377899423165623     
  -155.84451757806053       0.63473093986035267     
  -151.26085971588691       0.71118868476843489     
  -146.67720185371329       0.79144293111675645     
  -142.09353033116170       0.87362864868692991     
  -137.50987246898811       0.95577075674848100     
  -132.92621460681448        1.0358352453888662     
  -128.34254308426290        1.1117799688112453     
  -123.75888522208929        1.1816061487931990     
  -119.17522735991567        1.2434111624541850     
  -114.59155583736410        1.2954371276003231     
  -110.00789797519047        1.3361166003259615     
  -105.42424011301686        1.3641150684398946     
  -100.84058225084324        1.3783662815004014     
  -96.256924388669631        1.3781019043625460     
  -91.673239205740089        1.3628735948602060     
  -87.089581343566479        1.3325678170962401     
  -82.505923481392855        1.2874114185595349     
  -77.922265619219246        1.2279696065044827     
  -73.338607757045622        1.1551352269228221     
  -68.754949894872013        1.0701099582616938     
  -64.171264711942470       0.97437722962612539     
  -59.587606849768854       0.86967106024895224     
  -55.003948987595237       0.75793291183458078     
  -50.420291125421620       0.64126899623366307     
  -45.836633263248004       0.52190071694961537     
  -41.252975401074387       0.40211277638789356     
  -36.669317538900771       0.28419970311534826     
  -32.085632355971235       0.17041147223737965     
  -27.501974493797618        6.2903572936673036E-002
  -22.918316631624002       -3.6317294039326320E-002
  -18.334658769450385      -0.12543701642032096     
  -13.751000907276769      -0.20287649645014674     
  -9.1673430451031521      -0.26732752793620557     
  -4.5836578621736166      -0.31778218656762403     
   0.0000000000000000      -0.35355338286611859     
   4.5836578621736166      -0.37429035604927419     
   9.1673157243472332      -0.37998275143419347     
   13.750973586520850      -0.37095790599351014     
   18.334631448694466      -0.34786946241662414     
   22.918289310868083      -0.31167796516775742     
   27.501974493797618      -0.26362363259881427     
   32.085632355971235      -0.20519386431352388     
   36.669290218144852      -0.13808186939036970     
   41.252948080318468       -6.4143205901450173E-002
   45.836605942492085        1.4652775383031835E-002
   50.420263804665701        9.6273754120467847E-002
   55.003948987595237       0.17867697066794347     
   59.587606849768854       0.25985918336815850     
   64.171264711942470       0.33791012455995528     
   68.754922574116094       0.41105829440561481     
   73.338580436289703       0.47771528316048073     
   77.922238298463327       0.53651455546473437     
   82.505923481392855       0.58634447668980627     
   87.089581343566479       0.62637308710173112     
   91.673239205740089       0.65606830443770170     
   96.256897067913712       0.67520714081397126     
   100.84055493008732       0.68387829781829035     
   105.42421279226095       0.68247620586457347     
   110.00787065443456       0.67168700841962359     
  -343.77466751209226      -0.57931660722283629     
  -339.19100964991867      -0.55793322128703238     
  -334.60735178774507      -0.52262495751294280     
  -330.02369392557142      -0.47472218568029273     
  -325.44000874264191      -0.41579008816199636     
  -320.85635088046826      -0.34758795339917054     
  -316.27269301829466      -0.27202050961621577     
  -311.68903515612107      -0.19108956910230435     
  -307.10537729394741      -0.10684211429662027     
  -302.52171943177382       -2.1318137513869351E-002
  -297.93803424884430        6.3501253792031420E-002
  -293.35437638667065       0.14574113922444498     
  -288.77071852449706       0.22368183215473525     
  -284.18706066232340       0.29579834795346371     
  -279.60340280014981       0.36079688883351169     
  -275.01974493797621       0.41764438623388156     
  -270.43608707580256       0.46559087809929911     
  -265.85240189287305       0.50418437680203898     
  -261.26874403069939       0.53327661503381563     
  -256.68508616852580       0.55302284229865539     
  -252.10142830635218       0.56387114230233060     
  -247.51777044417858       0.56654515189564347     
  -242.93408526124904       0.56201912788888853     
  -238.35042739907541       0.55148654174750766     
  -233.76676953690179       0.53632252654171209     
  -229.18311167472820       0.51804174581184226     
  -224.59945381255457       0.49825248348855261     
  -220.01579595038095       0.47860825928604034     
  -215.43212442782936       0.46075819674791069     
  -210.84846656565577       0.44629776343333027     
  -206.26480870348215       0.43672040239865556     
  -201.68113718093056       0.43337241409558819     
  -197.09747931875694       0.43741148269569807     
  -192.51382145658334       0.44977018006121788     
  -187.93014993403176       0.47112565736014739     
  -183.34649207185814       0.50187569690266010     
  -178.76283420968451       0.54212289267047331     
  -174.17916268713296       0.59166628547492051     
  -169.59550482495933       0.65000064143699821     
  -165.01184696278571       0.71632537334059943     
  -160.42818910061209       0.78956002117731061     
  -155.84451757806053       0.86836830214291427     
  -151.26085971588691       0.95118787783734549     
  -146.67720185371329        1.0362687820854308     
  -142.09353033116170        1.1217151179491145     
  -137.50987246898811        1.2055309284834128     
  -132.92621460681448        1.2856715098758900     
  -128.34254308426290        1.3600942226865458     
  -123.75888522208929        1.4268100334153289     
  -119.17522735991567        1.4839362127356419     
  -114.59155583736410        1.5297447861845814     
  -110.00789797519047        1.5627081169087405     
  -105.42424011301686        1.5815410333455198     
  -100.84058225084324        1.5852359131937581     
  -96.256924388669631        1.5730919456877552     
  -91.673239205740089        1.5447366955581290     
  -87.089581343566479        1.5001407507716926     
  -82.505923481392855        1.4396222923406512     
  -77.922265619219246        1.3638447920907497     
  -73.338607757045622        1.2738055884717210     
  -68.754949894872013        1.1708164118814763     
  -64.171264711942470        1.0564754863149395     
  -59.587606849768854       0.93263608144352883     
  -55.003948987595237       0.80136193704183190     
  -50.420291125421620       0.66488422842795492     
  -45.836633263248004       0.52555109952233414     
  -41.252975401074387       0.38577495939240120     
  -36.669317538900771       0.24797819262667270     
  -32.085632355971235       0.11453784567732705     
  -27.501974493797618       -1.2264651889295930E-002
  -22.918316631624002      -0.13029929792840531     
  -18.334658769450385      -0.23763163641711604     
  -13.751000907276769      -0.33256607123072851     
  -9.1673430451031521      -0.41368248838273647     
  -4.5836578621736166      -0.47986645293002489     
   0.0000000000000000      -0.53033007429917789     
   4.5836578621736166      -0.56462870715250013     
   9.1673157243472332      -0.58266524863116720     
   13.750973586520850      -0.58468807544903456     
   18.334631448694466      -0.57128016302910778     
   22.918289310868083      -0.54334013359007960     
   27.501974493797618      -0.50205546019252689     
   32.085632355971235      -0.44887015914902822     
   36.669290218144852      -0.38544393772310975     
   41.252948080318468      -0.31360877765952189     
   45.836605942492085      -0.23532057451062227     
   50.420263804665701      -0.15260840057798986     
   55.003948987595237       -6.7521974708124155E-002
   59.587606849768854        1.7918266122338267E-002
   64.171264711942470       0.10177482871568433     
   68.754922574116094       0.18223907714031296     
   73.338580436289703       0.25767580380476285     
   77.922238298463327       0.32666231309543370     
   82.505923481392855       0.38802187953605838     
   87.089581343566479       0.44084865577992938     
   91.673239205740089       0.48452875992437283     
   96.256897067913712       0.51874974870549762     
   100.84055493008732       0.54350384958900733     
   105.42421279226095       0.55908261722884389     
   110.00787065443456       0.56606357574644650     
  -343.77466751209226      -0.79844648317503308     
  -339.19100964991867      -0.78597930878695665     
  -334.60735178774507      -0.75812854261266394     
  -330.02369392557142      -0.71617685198767345     
  -325.44000874264191      -0.66165137434790611     
  -320.85635088046826      -0.59628315835632439     
  -316.27269301829466      -0.52195883576403923     
  -311.68903515612107      -0.44067226714204200     
  -307.10537729394741      -0.35447270973145462     
  -302.52171943177382      -0.26541264261809439     
  -297.93803424884430      -0.17549575714694576     
  -293.35437638667065       -8.6629640953558740E-002
  -288.77071852449706       -5.7634009242901740E-004
  -284.18706066232340        8.1087267900301296E-002
  -279.60340280014981       0.15700631654434594     
  -275.01974493797621       0.22607788342956436     
  -270.43608707580256       0.28747381432096353     
  -265.85240189287305       0.34065618141221443     
  -261.26874403069939       0.38538322478206011     
  -256.68508616852580       0.42171026837740833     
  -252.10142830635218       0.44997933546548363     
  -247.51777044417858       0.47080262965037811     
  -242.93408526124904       0.48503842789571822     
  -238.35042739907541       0.49375996672207262     
  -233.76676953690179       0.49821932886224413     
  -229.18311167472820       0.49980565544768729     
  -224.59945381255457       0.50000014896309275     
  -220.01579595038095       0.50032850152564201     
  -215.43212442782936       0.50231213936521946     
  -210.84846656565577       0.50741954413024581     
  -206.26480870348215       0.51701905110854618     
  -201.68113718093056       0.53233434920937350     
  -197.09747931875694       0.55440363030702655     
  -192.51382145658334       0.58404419109999606     
  -187.93014993403176       0.62182268557588727     
  -183.34649207185814       0.66803174714407854     
  -178.76283420968451       0.72267513526714067     
  -174.17916268713296       0.78545984208449449     
  -169.59550482495933       0.85579585577417128     
  -165.01184696278571       0.93280586084090888     
  -160.42818910061209        1.0153410481229650     
  -155.84451757806053        1.1020056644254761     
  -151.26085971588691        1.1911870709062562     
  -146.67720185371329        1.2810946330541051     
  -142.09353033116170        1.3698015872112990     
  -137.50987246898811        1.4552911002183446     
  -132.92621460681448        1.5355077743629137     
  -128.34254308426290        1.6084084765618467     
  -123.75888522208929        1.6720139180374587     
  -119.17522735991567        1.7244612630170990     
  -114.59155583736410        1.7640524447688402     
  -110.00789797519047        1.7892996334915197     
  -105.42424011301686        1.7989669982511454     
  -100.84058225084324        1.7921055448871148     
  -96.256924388669631        1.7680819870129647     
  -91.673239205740089        1.7265997962560522     
  -87.089581343566479        1.6677136844471452     
  -82.505923481392855        1.5918331661217677     
  -77.922265619219246        1.4997199776770167     
  -73.338607757045622        1.3924759500206199     
  -68.754949894872013        1.2715228655012591     
  -64.171264711942470        1.1385737430037537     
  -59.587606849768854       0.99560110263810553     
  -55.003948987595237       0.84479096224908290     
  -50.420291125421620       0.68849946062224698     
  -45.836633263248004       0.52920148209505291     
  -41.252975401074387       0.36943714239690895     
  -36.669317538900771       0.21175668213799714     
  -32.085632355971235        5.8664219117274374E-002
  -27.501974493797618       -8.7432876715264979E-002
  -22.918316631624002      -0.22428130181748421     
  -18.334658769450385      -0.34982625641391102     
  -13.751000907276769      -0.46225564601131025     
  -9.1673430451031521      -0.56003744882926731     
  -4.5836578621736166      -0.64195071929242575     
   0.0000000000000000      -0.70710676573223719     
   4.5836578621736166      -0.75496705825572608     
