 phi	energy	
  -343.77466751209226      -0.16196955102883753     
  -339.19100964991867      -0.10748745957452027     
  -334.60735178774507       -4.1961800470571631E-002
  -330.02369392557142        3.3083768661684970E-002
  -325.44000874264191       0.11591057693335577     
  -320.85635088046826       0.20460620689529935     
  -316.27269301829466       0.29713499440563196     
  -311.68903515612107       0.39138663266452356     
  -307.10537729394741       0.48522893238793752     
  -302.52171943177382       0.57656052711411210     
  -297.93803424884430       0.66336316091027114     
  -293.35437638667065       0.74374920379068299     
  -288.77071852449706       0.81601085061331713     
  -284.18706066232340       0.87865944319423128     
  -279.60340280014981       0.93046174602916454     
  -275.01974493797621       0.97046910128614161     
  -270.43608707580256       0.99803926614550009     
  -265.85240189287305        1.0128504400760101     
  -261.26874403069939        1.0149067645530072     
  -256.68508616852580        1.0045362945927181     
  -252.10142830635218       0.98237975761951413     
  -247.51777044417858       0.94937190840590868     
  -242.93408526124904       0.90671501135811439     
  -238.35042739907541       0.85584689924915103     
  -233.76676953690179       0.79840049416088577     
  -229.18311167472820       0.73616092212020967     
  -224.59945381255457       0.67101765277213132     
  -220.01579595038095       0.60491431614743718     
  -215.43212442782936       0.53979707322466586     
  -210.84846656565577       0.47756402122034747     
  -206.26480870348215       0.42001404452675389     
  -201.68113718093056       0.36880016185189501     
  -197.09747931875694       0.32538652031044929     
  -192.51382145658334       0.29100908363067218     
  -187.93014993403176       0.26664381972410428     
  -183.34649207185814       0.25298123943121908     
  -178.76283420968451       0.25040788747790071     
  -174.17916268713296       0.25899659051886587     
  -169.59550482495933       0.27850432840628070     
  -165.01184696278571       0.30837874633832252     
  -160.42818910061209       0.34777254148098746     
  -155.84451757806053       0.39556580857014667     
  -151.26085971588691       0.45039478383925768     
  -146.67720185371329       0.51068844834779925     
  -142.09353033116170       0.57470939989950831     
  -137.50987246898811       0.64059885826822505     
  -132.92621460681448       0.70642671796556877     
  -128.34254308426290       0.77024186593376853     
  -123.75888522208929       0.83012318395114570     
  -119.17522735991567       0.88423162286395052     
  -114.59155583736410       0.93085851956859167     
  -110.00789797519047       0.96847099787044266     
  -105.42424011301686       0.99575414430392117     
  -100.84058225084324        1.0116462840362279     
  -96.256924388669631        1.0153685856115713     
  -91.673239205740089        1.0064472502079900     
  -87.089581343566479       0.98472832374971886     
  -82.505923481392855       0.95038375799569119     
  -77.922265619219246       0.90390960149884680     
  -73.338607757045622       0.84611575166696884     
  -68.754949894872013       0.77810767906759415     
  -64.171264711942470       0.70126007892723963     
  -59.587606849768854       0.61718594532707693     
  -55.003948987595237       0.52769487271438431     
  -50.420291125421620       0.43475076784645145     
  -45.836633263248004       0.34042330867359361     
  -41.252975401074387       0.24683702211233691     
  -36.669317538900771       0.15611883587933398     
  -32.085632355971235        7.0344940005451745E-002
  -27.501974493797618       -8.5087059042752711E-003
  -22.918316631624002       -7.8618525477431866E-002
  -18.334658769450385      -0.13835661744760538     
  -13.751000907276769      -0.18633182586707536     
  -9.1673430451031521      -0.22142441497233459     
  -4.5836578621736166      -0.24281408194272822     
   0.0000000000000000      -0.25000000000000000     
   4.5836578621736166      -0.24281408194272822     
   9.1673157243472332      -0.22142458396165743     
   13.750973586520850      -0.18633207439691557     
   18.334631448694466      -0.13835693971178012     
   22.918289310868083       -7.8618913961644832E-002
   27.501974493797618       -8.5087059042752711E-003
   32.085632355971235        7.0344940005451745E-002
   36.669290218144852       0.15611830787049069     
   41.252948080318468       0.24683647074337120     
   45.836605942492085       0.34042274652424992     
   50.420263804665701       0.43475020763953098     
   55.003948987595237       0.52769487271438431     
   59.587606849768854       0.61718594532707693     
   64.171264711942470       0.70126007892723963     
   68.754922574116094       0.77810724587396485     
   73.338580436289703       0.84611537550947180     
   77.922238298463327       0.90390928979969198     
   82.505923481392855       0.95038375799569119     
   87.089581343566479       0.98472832374971886     
   91.673239205740089        1.0064472502079900     
   96.256897067913712        1.0153685704311799     
   100.84055493008732        1.0116463431174776     
   105.42421279226095       0.99575427389557936     
   110.00787065443456       0.96847119246154123     
  -343.77466751209226      -0.40201212269142905     
  -339.19100964991867      -0.34117996036178078     
  -334.60735178774507      -0.26780939872736342     
  -330.02369392557142      -0.18347427591847931     
  -325.44000874264191       -8.9972616529021554E-002
  -320.85635088046826        1.0714752318307263E-002
  -316.27269301829466       0.11647551998401012     
  -311.68903515612107       0.22511474031213824     
  -307.10537729394741       0.33440819276799222     
  -302.52171943177382       0.44215567642941894     
  -297.93803424884430       0.54623403521157976     
  -293.35437638667065       0.64464492782291005     
  -288.77071852449706       0.73556535233040654     
  -284.18706066232340       0.81738729827551171     
  -279.60340280014981       0.88875488635731992     
  -275.01974493797621       0.94859430792545019     
  -270.43608707580256       0.99613646285669444     
  -265.85240189287305        1.0309319171805080     
  -261.26874403069939        1.0528567433169322     
  -256.68508616852580        1.0621120251230398     
  -252.10142830635218        1.0592129524261571     
  -247.51777044417858        1.0449710981803784     
  -242.93408526124904        1.0204687948478299     
  -238.35042739907541       0.98702753167448931     
  -233.76676953690179       0.94616886874165573     
  -229.18311167472820       0.89957182733611263     
  -224.59945381255457       0.84902581847933067     
  -220.01579595038095       0.79638109972763882     
  -215.43212442782936       0.74349777755334756     
  -210.84846656565577       0.69219562109811128     
  -206.26480870348215       0.64420363278452408     
  -201.68113718093056       0.60111371494955756     
  -197.09747931875694       0.56433800075918594     
  -192.51382145658334       0.53507002031646134     
  -187.93014993403176       0.51425306673528126     
  -183.34649207185814       0.50255493268403306     
  -178.76283420968451       0.50034961007533052     
  -174.17916268713296       0.50770756539153328     
  -169.59550482495933       0.52439365838708241     
  -165.01184696278571       0.54987358183697355     
  -160.42818910061209       0.58332814262162747     
  -155.84451757806053       0.62367540184506387     
  -151.26085971588691       0.66959926904790168     
  -146.67720185371329       0.71958566751619091     
  -142.09353033116170       0.77196308963645577     
  -137.50987246898811       0.82494730325783272     
  -132.92621460681448       0.87669071951631883     
  -128.34254308426290       0.92533227080689340     
  -123.75888522208929       0.96904798835335204     
  -119.17522735991567        1.0061021838366300     
  -114.59155583736410        1.0348952287053772     
  -110.00789797519047        1.0540084285804820     
  -105.42424011301686        1.0622451499791985     
  -100.84058225084324        1.0586655499587674     
  -96.256924388669631        1.0426153495110155     
  -91.673239205740089        1.0137471069516202     
  -87.089581343566479       0.97203469775410301     
  -82.505923481392855       0.91777784499408033     
  -77.922265619219246       0.85159996766574497     
  -73.338607757045622       0.77443699950891309     
  -68.754949894872013       0.68751830711305983     
  -64.171264711942470       0.59233944160598206     
  -59.587606849768854       0.49063087279435480     
  -55.003948987595237       0.38431488400868985     
  -50.420291125421620       0.27546300384782363     
  -45.836633263248004       0.16624666554300943     
  -41.252975401074387        5.8885633845795704E-002
  -36.669317538900771       -4.4405052334031470E-002
  -32.085632355971235      -0.14146884534658144     
  -27.501974493797618      -0.23025743439716159     
  -22.918316631624002      -0.30888376469369527     
  -18.334658769450385      -0.37566545846847987     
  -13.751000907276769      -0.42916630484516749     
  -9.1673430451031521      -0.46823122290152541     
  -4.5836578621736166      -0.49201451004263419     
   0.0000000000000000      -0.50000000000000000     
   4.5836578621736166      -0.49201451004263419     
   9.1673157243472332      -0.46823141088306858     
   13.750973586520850      -0.42916658171137001     
   18.334631448694466      -0.37566581823190326     
   22.918289310868083      -0.30888419960017649     
   27.501974493797618      -0.23025743439716159     
   32.085632355971235      -0.14146884534658144     
   36.669290218144852       -4.4405651534129065E-002
   41.252948080318468        5.8885003872049146E-002
   45.836605942492085       0.16624601787815974     
   50.420263804665701       0.27546235176167838     
   55.003948987595237       0.38431488400868985     
   59.587606849768854       0.49063087279435480     
   64.171264711942470       0.59233944160598206     
   68.754922574116094       0.68751776281171117     
   73.338580436289703       0.77443650914702711     
   77.922238298463327       0.85159953939604816     
   82.505923481392855       0.91777784499408033     
   87.089581343566479       0.97203469775410301     
   91.673239205740089        1.0137471069516202     
   96.256897067913712        1.0426152158314412     
   100.84055493008732        1.0586654919580987     
   105.42421279226095        1.0622451646551259     
   110.00787065443456        1.0540085111571047     
  -343.77466751209226      -0.64205469435402052     
  -339.19100964991867      -0.57487246114904123     
  -334.60735178774507      -0.49365699698415533     
  -330.02369392557142      -0.40003232049864362     
  -325.44000874264191      -0.29585580999139893     
  -320.85635088046826      -0.18317670225868482     
  -316.27269301829466       -6.4183954437611657E-002
  -311.68903515612107        5.8842847959752920E-002
  -307.10537729394741       0.18358745314804692     
  -302.52171943177382       0.30775082574472579     
  -297.93803424884430       0.42910490951288843     
  -293.35437638667065       0.54554065185513700     
  -288.77071852449706       0.65511985404749595     
  -284.18706066232340       0.75611515335679214     
  -279.60340280014981       0.84704802668547541     
  -275.01974493797621       0.92671951456475887     
  -270.43608707580256       0.99423365956788889     
  -265.85240189287305        1.0490133942850060     
  -261.26874403069939        1.0908067220808575     
  -256.68508616852580        1.1196877556533618     
  -252.10142830635218        1.1360461472328003     
  -247.51777044417858        1.1405702879548480     
  -242.93408526124904        1.1342225783375455     
  -238.35042739907541        1.1182081640998276     
  -233.76676953690179        1.0939372433224257     
  -229.18311167472820        1.0629827325520158     
  -224.59945381255457        1.0270339841865301     
  -220.01579595038095       0.98784788330784057     
  -215.43212442782936       0.94719848188202915     
  -210.84846656565577       0.90682722097587520     
  -206.26480870348215       0.86839322104229422     
  -201.68113718093056       0.83342726804722012     
  -197.09747931875694       0.80328948120792254     
  -192.51382145658334       0.77913095700225055     
  -187.93014993403176       0.76186231374645819     
  -183.34649207185814       0.75212862593684704     
  -178.76283420968451       0.75029133267276038     
  -174.17916268713296       0.75641854026420063     
  -169.59550482495933       0.77028298836788411     
  -165.01184696278571       0.79136841733562457     
  -160.42818910061209       0.81888374376226747     
  -155.84451757806053       0.85178499511998118     
  -151.26085971588691       0.88880375425654568     
  -146.67720185371329       0.92848288668458245     
  -142.09353033116170       0.96921677937340334     
  -137.50987246898811        1.0092957482474405     
  -132.92621460681448        1.0469547210670689     
  -128.34254308426290        1.0804226756800182     
  -123.75888522208929        1.1079727927555583     
  -119.17522735991567        1.1279727448093093     
  -114.59155583736410        1.1389319378421630     
  -110.00789797519047        1.1395458592905214     
  -105.42424011301686        1.1287361556544757     
  -100.84058225084324        1.1056848158813071     
  -96.256924388669631        1.0698621134104598     
  -91.673239205740089        1.0210469636952506     
  -87.089581343566479       0.95934107175848715     
  -82.505923481392855       0.88517193199246935     
  -77.922265619219246       0.79929033383264303     
  -73.338607757045622       0.70275824735085746     
  -68.754949894872013       0.59692893515852541     
  -64.171264711942470       0.48341880428472456     
  -59.587606849768854       0.36407580026163266     
  -55.003948987595237       0.24093489530299539     
  -50.420291125421620       0.11617523984919581     
  -45.836633263248004       -7.9299775875747436E-003
  -41.252975401074387      -0.12906575442074547     
  -36.669317538900771      -0.24492894054739694     
  -32.085632355971235      -0.35328263069861460     
  -27.501974493797618      -0.45200616289004791     
  -22.918316631624002      -0.53914900390995879     
  -18.334658769450385      -0.61297429948935434     
  -13.751000907276769      -0.67200078382325956     
  -9.1673430451031521      -0.71503803083071615     
  -4.5836578621736166      -0.74121493814254014     
   0.0000000000000000      -0.75000000000000000     
   4.5836578621736166      -0.74121493814254014     
   9.1673157243472332      -0.71503823780447973     
   13.750973586520850      -0.67200108902582445     
   18.334631448694466      -0.61297469675202643     
   22.918289310868083      -0.53914948523870820     
   27.501974493797618      -0.45200616289004791     
   32.085632355971235      -0.35328263069861460     
   36.669290218144852      -0.24492961093874882     
   41.252948080318468      -0.12906646299927294     
   45.836605942492085       -7.9307107679303934E-003
   50.420263804665701       0.11617449588382578     
   55.003948987595237       0.24093489530299539     
   59.587606849768854       0.36407580026163266     
   64.171264711942470       0.48341880428472456     
   68.754922574116094       0.59692827974945750     
   73.338580436289703       0.70275764278458230     
   77.922238298463327       0.79928978899240433     
   82.505923481392855       0.88517193199246935     
   87.089581343566479       0.95934107175848715     
   91.673239205740089        1.0210469636952506     
   96.256897067913712        1.0698618612317023     
   100.84055493008732        1.1056846407987195     
   105.42421279226095        1.1287360554146724     
   110.00787065443456        1.1395458298526679     
  -343.77466751209226      -0.88209726601661198     
  -339.19100964991867      -0.80856496193630167     
  -334.60735178774507      -0.71950459524094712     
  -330.02369392557142      -0.61659036507880782     
  -325.44000874264191      -0.50173900345377620     
  -320.85635088046826      -0.37706815683567690     
  -316.27269301829466      -0.24484342885923355     
  -311.68903515612107      -0.10742904439263234     
  -307.10537729394741        3.2766713528101676E-002
  -302.52171943177382       0.17334597506003258     
  -297.93803424884430       0.31197578381419705     
  -293.35437638667065       0.44643637588736407     
  -288.77071852449706       0.57467435576458537     
  -284.18706066232340       0.69484300843807256     
  -279.60340280014981       0.80534116701363079     
  -275.01974493797621       0.90484472120406745     
  -270.43608707580256       0.99233085627908335     
  -265.85240189287305        1.0670948713895041     
  -261.26874403069939        1.1287567008447825     
  -256.68508616852580        1.1772634861836835     
  -252.10142830635218        1.2128793420394435     
  -247.51777044417858        1.2361694777293177     
  -242.93408526124904        1.2479763618272610     
  -238.35042739907541        1.2493887965251658     
  -233.76676953690179        1.2417056179031958     
  -229.18311167472820        1.2263936377679188     
  -224.59945381255457        1.2050421498937296     
  -220.01579595038095        1.1793146668880421     
  -215.43212442782936        1.1508991862107107     
  -210.84846656565577        1.1214588208536391     
  -206.26480870348215        1.0925828093000645     
  -201.68113718093056        1.0657408211448827     
  -197.09747931875694        1.0422409616566592     
  -192.51382145658334        1.0231918936880398     
  -187.93014993403176        1.0094715607576352     
  -183.34649207185814        1.0017023191896610     
  -178.76283420968451        1.0002330552701901     
  -174.17916268713296        1.0051295151368682     
  -169.59550482495933        1.0161723183486857     
  -165.01184696278571        1.0328632528342756     
  -160.42818910061209        1.0544393449029075     
  -155.84451757806053        1.0798945883948983     
  -151.26085971588691        1.1080082394651898     
  -146.67720185371329        1.1373801058529740     
  -142.09353033116170        1.1664704691103509     
  -137.50987246898811        1.1936441932370481     
  -132.92621460681448        1.2172187226178190     
  -128.34254308426290        1.2355130805531429     
  -123.75888522208929        1.2468975971577647     
  -119.17522735991567        1.2498433057819887     
  -114.59155583736410        1.2429686469789485     
  -110.00789797519047        1.2250832900005608     
  -105.42424011301686        1.1952271613297532     
  -100.84058225084324        1.1527040818038468     
  -96.256924388669631        1.0971088773099040     
  -91.673239205740089        1.0283468204388808     
  -87.089581343566479       0.94664744576287130     
  -82.505923481392855       0.85256601899085849     
  -77.922265619219246       0.74698069999954120     
  -73.338607757045622       0.63107949519280182     
  -68.754949894872013       0.50633956320399109     
  -64.171264711942470       0.37449816696346699     
  -59.587606849768854       0.23752072772891053     
  -55.003948987595237        9.7554906597300928E-002
  -50.420291125421620       -4.3112524149432008E-002
  -45.836633263248004      -0.18210662071815897     
  -41.252975401074387      -0.31701714268728670     
  -36.669317538900771      -0.44545282876076236     
  -32.085632355971235      -0.56509641605064775     
  -27.501974493797618      -0.67375489138293421     
  -22.918316631624002      -0.76941424312622220     
  -18.334658769450385      -0.85028314051022891     
  -13.751000907276769      -0.91483526280135163     
  -9.1673430451031521      -0.96184483875990701     
  -4.5836578621736166      -0.99041536624244608     
   0.0000000000000000       -1.0000000000000000     
   4.5836578621736166      -0.99041536624244608     
